;LAP Aft Plenum: Mass(lbm),Temperature(R),Pressure(psia)
#I=0,692,1; vent_c1d2_lin.vsm  @ Fri Jan 16 15:52:17 1998
0	113.6	515	11.62
1	113.07	515	11.566
2	112.51	515	11.509
3	111.96	515	11.453
4	111.41	515	11.396
5	110.86	515	11.34
6	110.31	515	11.284
7	109.76	515	11.227
8	109.21	515	11.171
9	108.66	515	11.115
10	108.11	515	11.058
11	107.56	515.01	11.002
12	107	515.06	10.946
13	106.43	515.13	10.89
14	105.86	515.22	10.833
15	105.29	515.33	10.777
16	104.71	515.46	10.721
17	104.14	515.6	10.664
18	103.55	515.75	10.608
19	102.97	515.92	10.552
20	102.38	516.11	10.495
21	101	516.11	10.354
22	99.513	516.11	10.201
23	98.025	516.11	10.049
24	96.55	516.11	9.8974
25	95.057	516.23	9.7466
26	93.536	516.47	9.5951
27	91.995	516.81	9.4433
28	90.44	517.24	9.2913
29	88.873	517.74	9.1392
30	87.296	518.32	8.987
31	85.711	518.96	8.8348
32	84.121	519.66	8.6825
33	82.525	520.42	8.5302
34	80.925	521.23	8.3779
35	79.323	522.09	8.2256
36	77.718	523	8.0733
37	76.113	523.96	7.921
38	74.506	524.96	7.7686
39	72.9	526.01	7.6163
40	71.295	527.09	7.464
41	69.691	528.22	7.3117
42	68.088	529.39	7.1594
43	66.488	530.6	7.0072
44	64.891	531.85	6.8549
45	63.297	533.13	6.7027
46	61.707	534.46	6.5505
47	60.121	535.81	6.3984
48	58.54	537.2	6.2462
49	56.963	538.63	6.0941
50	55.391	540.09	5.9421
51	53.825	541.58	5.79
52	52.265	543.11	5.6381
53	50.71	544.67	5.4861
54	49.124	546.35	5.3309
55	47.508	548.24	5.1733
56	45.883	550.33	5.0154
57	44.297	552.52	4.8614
58	42.756	554.7	4.7107
59	41.235	556.86	4.5609
60	39.731	558.99	4.4113
61	38.242	561.09	4.262
62	36.767	563.16	4.1128
63	35.307	565.21	3.9637
64	33.86	567.22	3.8149
65	32.427	569.2	3.6662
66	31.007	571.15	3.5176
67	29.601	573.06	3.3693
68	28.207	574.92	3.2212
69	26.827	576.75	3.0732
70	25.459	578.51	2.9255
71	24.104	580.22	2.778
72	22.762	581.86	2.6307
73	21.431	583.41	2.4836
74	20.114	584.87	2.3367
75	18.808	586.19	2.1899
76	17.713	587.94	2.0686
77	16.835	590.11	1.9733
78	16.037	592.4	1.8871
79	15.272	594.73	1.8042
80	14.523	597.07	1.7224
81	13.784	599.4	1.6411
82	13.053	601.73	1.5602
83	12.329	604.06	1.4794
84	11.613	606.37	1.3988
85	10.904	608.66	1.3184
86	10.203	610.92	1.2382
87	9.509	613.16	1.1582
88	8.9105	615.67	1.0898
89	8.4242	618.47	1.035
90	7.9888	621.34	0.98603
91	7.5771	624.19	0.93952
92	7.1776	626.99	0.89398
93	6.7857	629.7	0.84883
94	6.3994	632.3	0.80382
95	6.018	634.73	0.75883
96	5.641	636.96	0.71378
97	5.2677	638.89	0.66858
98	4.8973	640.38	0.62302
99	4.5234	641.01	0.57603
100	4.147	641.01	0.52809
101	3.8231	641.24	0.48703
102	3.6015	642.84	0.45995
103	3.4015	644.83	0.43575
104	3.2076	646.94	0.41226
105	3.0163	649.14	0.38899
106	2.8268	651.39	0.36583
107	2.639	653.68	0.34273
108	2.4531	655.98	0.31971
109	2.2783	658.53	0.29809
110	2.134	661.77	0.28058
111	2.0027	665.18	0.26469
112	1.877	668.54	0.24933
113	1.7542	671.74	0.23414
114	1.6336	674.67	0.21899
115	1.5148	677.18	0.20383
116	1.3976	679.07	0.18858
117	1.2802	679.71	0.17291
118	1.175	680.64	0.15893
119	1.0942	683.34	0.14858
120	1.0205	686.14	0.13916
121	0.94977	688.6	0.12997
122	0.88045	690.39	0.1208
123	0.81123	690.89	0.11139
124	0.74317	690.87	0.10204
125	0.67708	690.85	0.092969
126	0.6075	690.83	0.083416
127	0.52786	690.79	0.072481
128	0.46909	690.76	0.064411
129	0.42145	690.73	0.057869
130	0.37889	690.7	0.052025
131	0.34023	690.86	0.046729
132	0.32408	701.38	0.045192
133	0.31312	713.19	0.044402
134	0.30434	725.41	0.0439
135	0.29789	738.85	0.043769
136	0.29413	752.83	0.044037
137	0.29321	768	0.044786
138	0.29532	784.5	0.04608
139	0.30035	801.83	0.047903
140	0.30812	819.54	0.050229
141	0.31795	837.14	0.052946
142	0.31354	851.03	0.053081
143	0.29353	861.34	0.050299
144	0.27314	871.91	0.047384
145	0.25375	883.03	0.044586
146	0.23526	894.58	0.041883
147	0.21766	905.94	0.039245
148	0.20088	916.81	0.036659
149	0.18484	927.21	0.034119
150	0.16948	937.14	0.031622
151	0.15472	946.56	0.029162
152	0.14053	955.13	0.026732
153	0.12687	962.99	0.024336
154	0.11384	971.36	0.022031
155	0.10319	978.34	0.020117
156	0.094871	985.69	0.018638
157	0.088749	993.06	0.017568
158	0.085192	1000.1	0.016984
159	0.084844	1006.4	0.017023
160	0.088625	1012.2	0.017883
161	0.096385	1020.4	0.019603
162	0.10452	1027.5	0.021403
163	0.11275	1033.2	0.023215
164	0.12105	1037.7	0.025029
165	0.1294	1041.2	0.026844
166	0.1378	1043.9	0.028659
167	0.1463	1045.6	0.030471
168	0.15492	1046.1	0.032281
169	0.16368	1045.7	0.034092
170	0.17258	1044.5	0.035902
171	0.18162	1042.7	0.037713
172	0.19078	1040.4	0.039524
173	0.20005	1037.9	0.041342
174	0.20936	1035.5	0.043164
175	0.2187	1033.2	0.044986
176	0.22807	1030.9	0.046807
177	0.23747	1028.6	0.048626
178	0.24689	1026.4	0.050445
179	0.25634	1024.2	0.052263
180	0.26584	1022	0.054079
181	0.27537	1019.8	0.055894
182	0.28495	1017.6	0.057709
183	0.29456	1015.4	0.059523
184	0.30421	1013.1	0.061336
185	0.31391	1010.9	0.063149
186	0.32365	1008.6	0.06496
187	0.33344	1006.3	0.066771
188	0.34328	1004	0.068582
189	0.35315	1001.7	0.070392
190	0.36307	999.44	0.072202
191	0.37305	997.11	0.074011
192	0.38307	994.78	0.075819
193	0.39314	992.46	0.077628
194	0.40325	990.14	0.079436
195	0.41341	987.81	0.081243
196	0.42362	985.46	0.083049
197	0.43387	983.12	0.084856
198	0.44417	980.79	0.086662
199	0.45451	978.46	0.088468
200	0.46491	976.13	0.090273
201	0.47535	973.8	0.092078
202	0.48583	971.48	0.093883
203	0.49636	969.17	0.095688
204	0.50693	966.87	0.097492
205	0.51755	964.58	0.099295
206	0.52821	962.29	0.1011
207	0.53892	960.01	0.1029
208	0.54967	957.75	0.10471
209	0.56045	955.5	0.10651
210	0.57129	953.27	0.10831
211	0.58216	951.03	0.11011
212	0.59308	948.82	0.11191
213	0.60404	946.62	0.11372
214	0.61503	944.44	0.11552
215	0.62607	942.27	0.11732
216	0.63715	940.11	0.11912
217	0.64827	937.97	0.12092
218	0.65943	935.85	0.12272
219	0.67062	933.75	0.12452
220	0.68185	931.65	0.12632
221	0.69312	929.57	0.12812
222	0.70443	927.51	0.12992
223	0.71577	925.47	0.13172
224	0.72715	923.44	0.13352
225	0.73857	921.43	0.13532
226	0.75002	919.43	0.13712
227	0.76151	917.45	0.13892
228	0.77304	915.49	0.14072
229	0.78459	913.55	0.14252
230	0.79618	911.62	0.14431
231	0.80781	909.7	0.14611
232	0.81948	907.8	0.14791
233	0.83117	905.92	0.14971
234	0.84289	904.06	0.15151
235	0.85465	902.21	0.1533
236	0.86645	900.37	0.1551
237	0.87827	898.55	0.1569
238	0.89013	896.74	0.1587
239	0.90202	894.96	0.16049
240	0.91393	893.18	0.16229
241	0.92589	891.42	0.16409
242	0.93787	889.68	0.16588
243	0.94988	887.95	0.16768
244	0.96192	886.24	0.16948
245	0.97399	884.54	0.17127
246	0.9861	882.85	0.17307
247	0.99823	881.18	0.17487
248	1.0104	879.53	0.17666
249	1.0226	877.89	0.17846
250	1.0348	876.26	0.18026
251	1.047	874.65	0.18205
252	1.0593	873.05	0.18385
253	1.0716	871.47	0.18564
254	1.0839	869.91	0.18744
255	1.0963	868.36	0.18923
256	1.1086	866.81	0.19103
257	1.121	865.29	0.19282
258	1.1335	863.78	0.19462
259	1.1459	862.28	0.19641
260	1.1584	860.8	0.19821
261	1.1709	859.33	0.2
262	1.1834	857.87	0.2018
263	1.196	856.43	0.20359
264	1.2085	855	0.20539
265	1.2211	853.58	0.20718
266	1.2337	852.18	0.20898
267	1.2464	850.79	0.21077
268	1.259	849.41	0.21257
269	1.2717	848.04	0.21436
270	1.2844	846.69	0.21616
271	1.2971	845.35	0.21795
272	1.3099	844.02	0.21974
273	1.3226	842.7	0.22154
274	1.3354	841.4	0.22333
275	1.3482	840.1	0.22513
276	1.3611	838.82	0.22692
277	1.3739	837.55	0.22871
278	1.3868	836.29	0.23051
279	1.3997	835.04	0.2323
280	1.4126	833.81	0.2341
281	1.4255	832.58	0.23589
282	1.4384	831.36	0.23768
283	1.4514	830.16	0.23948
284	1.4644	828.96	0.24127
285	1.4774	827.78	0.24306
286	1.4904	826.61	0.24486
287	1.5035	825.44	0.24665
288	1.5165	824.29	0.24844
289	1.5296	823.15	0.25024
290	1.5427	822.01	0.25203
291	1.5558	820.89	0.25382
292	1.5689	819.77	0.25562
293	1.5821	818.67	0.25741
294	1.5952	817.57	0.2592
295	1.6084	816.49	0.26099
296	1.6216	815.41	0.26279
297	1.6348	814.34	0.26458
298	1.648	813.28	0.26637
299	1.6613	812.23	0.26816
300	1.6745	811.19	0.26996
301	1.6878	810.15	0.27175
302	1.7011	809.13	0.27354
303	1.7144	808.11	0.27533
304	1.7277	807.11	0.27713
305	1.7411	806.11	0.27892
306	1.7544	805.12	0.28071
307	1.7678	804.13	0.2825
308	1.7812	803.16	0.2843
309	1.7946	802.19	0.28609
310	1.808	801.24	0.28788
311	1.8214	800.28	0.28967
312	1.8348	799.34	0.29147
313	1.8483	798.41	0.29326
314	1.8618	797.48	0.29505
315	1.8752	796.56	0.29684
316	1.8887	795.65	0.29863
317	1.9022	794.74	0.30043
318	1.9157	793.84	0.30222
319	1.9293	792.95	0.30401
320	1.9428	792.07	0.3058
321	1.9564	791.19	0.30759
322	1.9699	790.33	0.30939
323	1.9835	789.49	0.31118
324	1.997	788.67	0.31297
325	2.0105	787.86	0.31477
326	2.024	787.06	0.31656
327	2.0375	786.29	0.31835
328	2.0509	785.53	0.32015
329	2.0644	784.8	0.32194
330	2.0778	784.08	0.32373
331	2.0911	783.38	0.32553
332	2.1045	782.7	0.32732
333	2.1178	782.03	0.32911
334	2.1312	781.38	0.33091
335	2.1445	780.74	0.3327
336	2.1578	780.11	0.33449
337	2.1711	779.5	0.33629
338	2.1843	778.91	0.33808
339	2.1975	778.34	0.33988
340	2.2107	777.79	0.34167
341	2.2238	777.26	0.34346
342	2.2369	776.77	0.34526
343	2.2498	776.32	0.34706
344	2.2627	775.91	0.34886
345	2.2754	775.54	0.35066
346	2.2881	775.2	0.35245
347	2.3004	775.03	0.35427
348	2.3122	775.05	0.35609
349	2.3234	775.26	0.35792
350	2.3341	775.65	0.35975
351	2.3443	776.19	0.36157
352	2.3537	777.01	0.36341
353	2.3623	778.12	0.36526
354	2.37	779.52	0.3671
355	2.3769	781.17	0.36895
356	2.3829	783.07	0.37079
357	2.4827	785.71	0.38761
358	2.6793	788.58	0.41983
359	2.9197	791.78	0.45935
360	3.1791	795.45	0.50248
361	3.4453	799.59	0.54738
362	3.7125	804.13	0.59317
363	4.0013	808.95	0.64314
364	4.3163	814.03	0.69812
365	4.6409	819.36	0.75554
366	4.9671	824.91	0.81411
367	5.3447	830.37	0.88179
368	5.7864	835.65	0.96072
369	6.2547	840.8	1.0449
370	6.7313	845.83	1.1312
371	7.1439	850.66	1.2074
372	7.47	854.6	1.2683
373	7.7827	856.47	1.3243
374	8.0907	855.81	1.3757
375	8.6711	853.67	1.4707
376	9.4351	850.95	1.5951
377	10.207	848.09	1.7198
378	11.021	845.3	1.8509
379	11.859	842.57	1.985
380	12.71	839.91	2.1208
381	13.571	837.31	2.2574
382	14.438	834.77	2.3944
383	15.311	832.29	2.5315
384	15.742	829.48	2.594
385	15.994	826.93	2.6274
386	16.224	824.63	2.6577
387	16.446	822.53	2.6873
388	16.665	820.62	2.7168
389	16.882	818.87	2.7462
390	17.096	817.27	2.7756
391	17.308	815.8	2.8049
392	17.518	814.46	2.8343
393	17.726	813.23	2.8637
394	17.933	812.11	2.893
395	18.138	811.07	2.9224
396	18.341	810.13	2.9517
397	18.543	809.26	2.981
398	18.744	808.47	3.0104
399	18.944	807.73	3.0397
400	19.143	807.06	3.069
401	19.34	806.44	3.0983
402	19.537	805.88	3.1276
403	19.733	805.35	3.1569
404	19.928	804.87	3.1862
405	20.123	804.42	3.2155
406	20.316	804	3.2448
407	20.51	803.62	3.2741
408	20.702	803.26	3.3034
409	20.895	802.93	3.3327
410	21.086	802.62	3.362
411	21.278	802.33	3.3913
412	21.469	802.06	3.4206
413	21.659	801.8	3.4499
414	21.85	801.56	3.4791
415	22.04	801.33	3.5084
416	22.23	801.12	3.5377
417	22.42	800.91	3.567
418	22.61	800.71	3.5963
419	22.799	800.52	3.6255
420	22.989	800.33	3.6548
421	23.178	800.15	3.6841
422	23.367	799.98	3.7134
423	23.556	799.81	3.7426
424	23.746	799.64	3.7719
425	23.935	799.47	3.8012
426	24.124	799.31	3.8305
427	24.313	799.15	3.8597
428	24.503	798.99	3.889
429	24.692	798.83	3.9183
430	24.882	798.67	3.9475
431	25.071	798.51	3.9768
432	25.261	798.35	4.0061
433	25.45	798.19	4.0353
434	25.64	798.03	4.0646
435	25.83	797.86	4.0939
436	26.02	797.7	4.1232
437	26.21	797.53	4.1524
438	26.401	797.37	4.1817
439	26.591	797.2	4.211
440	26.782	797.03	4.2402
441	26.973	796.85	4.2695
442	27.164	796.68	4.2988
443	27.355	796.5	4.328
444	27.546	796.32	4.3573
445	27.737	796.14	4.3866
446	27.929	795.95	4.4158
447	28.121	795.76	4.4451
448	28.312	795.57	4.4744
449	28.505	795.38	4.5036
450	28.697	795.19	4.5329
451	28.889	794.99	4.5622
452	29.082	794.8	4.5915
453	29.275	794.6	4.6207
454	29.468	794.39	4.65
455	29.661	794.19	4.6793
456	29.854	793.98	4.7085
457	30.048	793.77	4.7378
458	30.241	793.56	4.7671
459	30.435	793.35	4.7963
460	30.629	793.14	4.8256
461	30.823	792.92	4.8549
462	31.018	792.7	4.8841
463	31.212	792.48	4.9134
464	31.407	792.26	4.9427
465	31.602	792.04	4.972
466	31.797	791.81	5.0012
467	31.992	791.59	5.0305
468	32.188	791.36	5.0598
469	32.383	791.13	5.089
470	32.579	790.91	5.1183
471	32.775	790.68	5.1476
472	32.971	790.44	5.1769
473	33.167	790.21	5.2061
474	33.363	789.98	5.2354
475	33.56	789.75	5.2647
476	33.756	789.51	5.2939
477	33.953	789.28	5.3232
478	34.15	789.04	5.3525
479	34.347	788.81	5.3818
480	34.544	788.57	5.411
481	34.741	788.33	5.4403
482	34.939	788.1	5.4696
483	35.137	787.86	5.4988
484	35.334	787.62	5.5281
485	35.532	787.38	5.5574
486	35.73	787.15	5.5867
487	35.928	786.91	5.6159
488	36.126	786.67	5.6452
489	36.325	786.43	5.6745
490	36.523	786.2	5.7038
491	36.722	785.96	5.733
492	36.92	785.72	5.7623
493	37.119	785.48	5.7916
494	37.318	785.25	5.8209
495	37.517	785.01	5.8501
496	37.716	784.78	5.8794
497	37.915	784.54	5.9087
498	38.114	784.31	5.9379
499	38.314	784.07	5.9672
500	38.513	783.84	5.9965
501	38.713	783.61	6.0258
502	38.912	783.37	6.055
503	39.112	783.14	6.0843
504	39.312	782.91	6.1136
505	39.512	782.68	6.1429
506	39.712	782.45	6.1721
507	39.912	782.22	6.2014
508	40.112	781.99	6.2307
509	40.312	781.77	6.26
510	40.512	781.54	6.2892
511	40.713	781.31	6.3185
512	40.913	781.09	6.3478
513	41.114	780.87	6.3771
514	41.314	780.64	6.4063
515	41.515	780.42	6.4356
516	41.716	780.2	6.4649
517	41.916	779.98	6.4942
518	42.117	779.76	6.5234
519	42.318	779.54	6.5527
520	42.519	779.33	6.582
521	42.72	779.11	6.6113
522	42.921	778.9	6.6405
523	43.122	778.68	6.6698
524	43.323	778.47	6.6991
525	43.524	778.26	6.7284
526	43.725	778.05	6.7576
527	43.926	777.84	6.7869
528	44.128	777.63	6.8162
529	44.329	777.43	6.8455
530	44.53	777.22	6.8747
531	44.732	777.02	6.904
532	44.933	776.82	6.9333
533	45.135	776.62	6.9626
534	45.336	776.42	6.9918
535	45.538	776.22	7.0211
536	45.739	776.02	7.0504
537	45.941	775.82	7.0797
538	46.142	775.63	7.1089
539	46.344	775.43	7.1382
540	46.546	775.24	7.1675
541	46.747	775.05	7.1968
542	46.949	774.86	7.2261
543	47.151	774.67	7.2553
544	47.352	774.48	7.2846
545	47.554	774.3	7.3139
546	47.756	774.11	7.3432
547	47.958	773.93	7.3724
548	48.159	773.75	7.4017
549	48.361	773.57	7.431
550	48.563	773.39	7.4603
551	48.765	773.21	7.4895
552	48.967	773.03	7.5188
553	49.169	772.86	7.5481
554	49.37	772.68	7.5774
555	49.572	772.51	7.6066
556	49.774	772.34	7.6359
557	49.976	772.17	7.6652
558	50.178	772	7.6945
559	50.38	771.83	7.7238
560	50.582	771.66	7.753
561	50.784	771.5	7.7823
562	50.986	771.33	7.8116
563	51.188	771.17	7.8409
564	51.39	771.01	7.8701
565	51.591	770.85	7.8994
566	51.793	770.69	7.9287
567	51.995	770.53	7.958
568	52.197	770.37	7.9873
569	52.399	770.22	8.0165
570	52.601	770.06	8.0458
571	52.803	769.91	8.0751
572	53.005	769.76	8.1044
573	53.207	769.61	8.1336
574	53.409	769.46	8.1629
575	53.611	769.31	8.1922
576	53.812	769.16	8.2215
577	54.014	769.02	8.2508
578	54.216	768.87	8.28
579	54.418	768.73	8.3093
580	54.62	768.59	8.3386
581	54.822	768.45	8.3679
582	55.024	768.31	8.3971
583	55.225	768.17	8.4264
584	55.427	768.03	8.4557
585	55.629	767.9	8.485
586	55.831	767.76	8.5143
587	56.032	767.63	8.5435
588	56.234	767.5	8.5728
589	56.436	767.37	8.6021
590	56.637	767.24	8.6314
591	56.839	767.11	8.6607
592	57.041	766.98	8.6899
593	57.242	766.86	8.7192
594	57.444	766.73	8.7485
595	57.645	766.61	8.7778
596	57.847	766.49	8.8071
597	58.048	766.37	8.8363
598	58.25	766.25	8.8656
599	58.451	766.13	8.8949
600	58.652	766.02	8.9242
601	58.854	765.9	8.9535
602	59.055	765.79	8.9827
603	59.256	765.67	9.012
604	59.457	765.56	9.0413
605	59.658	765.45	9.0706
606	59.86	765.34	9.0999
607	60.061	765.24	9.1291
608	60.262	765.13	9.1584
609	60.462	765.03	9.1877
610	60.663	764.92	9.217
611	60.864	764.82	9.2463
612	61.065	764.72	9.2756
613	61.266	764.62	9.3048
614	61.466	764.53	9.3341
615	61.667	764.43	9.3634
616	61.867	764.34	9.3927
617	62.068	764.24	9.422
618	62.268	764.15	9.4512
619	62.469	764.06	9.4805
620	62.669	763.97	9.5098
621	62.869	763.88	9.5391
622	63.069	763.8	9.5684
623	63.27	763.71	9.5977
624	63.47	763.63	9.627
625	63.67	763.54	9.6562
626	63.87	763.46	9.6855
627	64.069	763.38	9.7148
628	64.269	763.3	9.7441
629	64.469	763.22	9.7734
630	64.669	763.15	9.8027
631	64.868	763.07	9.8319
632	65.068	763	9.8612
633	65.267	762.92	9.8905
634	65.467	762.85	9.9198
635	65.666	762.78	9.9491
636	65.865	762.71	9.9784
637	66.065	762.65	10.008
638	66.264	762.58	10.037
639	66.463	762.51	10.066
640	66.662	762.45	10.096
641	66.861	762.38	10.125
642	67.06	762.32	10.154
643	67.259	762.26	10.183
644	67.457	762.2	10.213
645	67.656	762.14	10.242
646	67.855	762.09	10.271
647	68.053	762.03	10.301
648	68.252	761.97	10.33
649	68.45	761.92	10.359
650	68.649	761.87	10.388
651	68.847	761.81	10.418
652	69.045	761.76	10.447
653	69.243	761.71	10.476
654	69.442	761.66	10.506
655	69.64	761.61	10.535
656	69.838	761.57	10.564
657	70.036	761.52	10.594
658	70.233	761.48	10.623
659	70.431	761.43	10.652
660	70.629	761.39	10.681
661	70.827	761.35	10.711
662	71.024	761.3	10.74
663	71.222	761.26	10.769
664	71.419	761.23	10.799
665	71.617	761.19	10.828
666	71.814	761.15	10.857
667	72.011	761.11	10.887
668	72.209	761.08	10.916
669	72.406	761.04	10.945
670	72.603	761.01	10.974
671	72.8	760.98	11.004
672	72.997	760.95	11.033
673	73.194	760.92	11.062
674	73.391	760.89	11.092
675	73.588	760.86	11.121
676	73.784	760.83	11.15
677	73.981	760.8	11.18
678	74.178	760.78	11.209
679	74.374	760.75	11.238
680	74.571	760.73	11.268
681	74.767	760.71	11.297
682	74.964	760.68	11.326
683	75.162	760.65	11.356
684	75.359	760.61	11.385
685	75.558	760.57	11.414
686	75.756	760.53	11.444
687	75.955	760.48	11.473
688	76.154	760.42	11.502
689	76.354	760.37	11.532
690	76.554	760.31	11.561
691	76.755	760.24	11.59
692	76.956	760.18	11.62
